TimeSinceStart_s;Temperature;Humidity;Latitude;Longitude;Altitude;TimeUTC;PM1_0;PM2_5;PM4_0;PM10_0
280;27.27;42.62;47.392170;8.532022;480.30;8554000.00000;6.73;7.11;7.11;7.11
285;28.17;40.17;47.392151;8.532030;496.00;8554500.00000;5.97;6.31;6.31;6.31
290;28.87;38.24;47.392155;8.532021;496.70;8555000.00000;5.24;5.54;5.54;5.54
295;29.66;36.80;47.392159;8.532025;491.10;8555500.00000;4.89;5.17;5.17;5.17
300;30.39;35.47;47.392166;8.532027;486.50;8560000.00000;4.81;5.08;5.08;5.08
305;31.05;34.44;47.392159;8.532030;486.30;8560500.00000;4.94;5.22;5.22;5.22
310;31.79;33.31;47.392155;8.532030;484.30;8561000.00000;4.92;5.20;5.20;5.20
315;32.31;32.10;47.392147;8.532036;482.30;8561500.00000;5.07;5.36;5.36;5.36
320;32.79;31.39;47.392151;8.532033;478.60;8562000.00000;5.07;5.37;5.37;5.37
325;33.29;30.87;47.392166;8.532022;471.90;8562500.00000;4.88;5.16;5.16;5.16
330;33.82;30.16;47.392174;8.532025;466.70;8563000.00000;4.79;5.06;5.06;5.06
335;34.26;29.36;47.392181;8.532026;463.40;8563500.00000;4.70;4.97;4.97;4.97
340;34.55;28.75;47.392178;8.532025;462.90;8564000.00000;4.76;5.03;5.03;5.03
345;34.91;28.64;47.392170;8.532028;463.10;8564500.00000;4.84;5.11;5.11;5.11
350;35.29;28.22;47.392174;8.532020;461.80;8565000.00000;4.76;5.03;5.03;5.03
355;35.70;27.72;47.392166;8.532022;463.50;8565500.00000;4.64;4.90;4.90;4.90
360;36.09;27.31;47.392166;8.532022;465.30;8565900.00000;4.44;4.70;4.70;4.70
365;36.48;26.71;47.392155;8.532028;467.60;8570400.00000;4.20;4.44;4.44;4.44
370;36.78;26.21;47.392166;8.532019;468.80;8570900.00000;4.20;4.45;4.45;4.45
375;37.07;25.99;47.392166;8.532013;468.30;8571400.00000;4.08;4.32;4.32;4.32
380;37.25;25.79;47.392181;8.532005;468.80;8571900.00000;4.09;4.32;4.32;4.32
385;37.57;25.40;47.392185;8.531998;467.50;8572400.00000;4.17;4.41;4.41;4.41
390;37.80;25.09;47.392197;8.531992;465.00;8572900.00000;4.27;4.51;4.51;4.51
395;37.99;24.79;47.392216;8.531976;462.20;8573400.00000;4.45;4.71;4.71;4.71
400;38.29;24.58;47.392235;8.531963;459.60;8573900.00000;4.57;4.84;4.84;4.84
405;38.23;24.68;47.392246;8.531962;456.60;8574400.00000;4.52;4.78;4.78;4.78
410;38.44;24.57;47.392254;8.531959;454.30;8574900.00000;4.53;4.79;4.79;4.79
415;38.57;24.27;47.392223;8.531986;455.70;8575400.00000;4.74;5.01;5.01;5.01
420;37.91;25.56;47.392147;8.532017;454.40;8575900.00000;20.27;21.43;21.43;21.43
425;37.50;26.27;47.392136;8.532011;449.20;8580400.00000;4.21;4.45;4.45;4.45
430;37.31;26.07;47.392151;8.532002;441.60;8580900.00000;5.56;5.88;5.88;5.88
435;37.20;26.67;47.392166;8.531981;439.00;8581400.00000;5.39;5.70;5.70;5.70
440;37.20;30.35;47.392197;8.531970;437.30;8581900.00000;5.12;5.41;5.41;5.41
445;37.89;30.31;47.392162;8.532014;439.40;8582400.00000;4.70;4.97;4.97;4.97
450;38.45;27.76;47.392162;8.532025;442.90;8582900.00000;4.34;4.59;4.59;4.59
455;39.01;26.48;47.392147;8.532032;444.30;8583400.00000;3.85;4.07;4.07;4.07
460;39.54;25.87;47.392139;8.532040;443.90;8583900.00000;3.60;3.81;3.81;3.81
465;40.05;25.46;47.392143;8.532052;442.30;8584400.00000;3.73;3.94;3.94;3.94
470;40.58;25.05;47.392151;8.532066;440.50;8584900.00000;3.82;4.04;4.04;4.04
475;40.99;24.45;47.392170;8.532111;440.30;8585400.00000;3.77;3.98;3.98;3.98
480;41.43;23.75;47.392174;8.532130;441.90;8585900.00000;3.82;4.04;4.04;4.04
485;41.82;23.16;47.392178;8.532152;442.60;8590400.00000;3.70;3.91;3.91;3.91
490;42.13;22.29;47.392181;8.532154;441.80;8590900.00000;3.61;3.82;3.82;3.82
495;42.35;22.28;47.392174;8.532152;439.90;8591400.00000;3.58;3.78;3.78;3.78
500;42.65;22.17;47.392189;8.532139;437.70;8591900.00000;3.47;3.67;3.67;3.67
505;42.94;22.05;47.392178;8.532160;435.90;8592400.00000;3.27;3.46;3.46;3.46
510;43.26;22.04;47.392193;8.532209;433.20;8592900.00000;3.23;3.42;3.42;3.42
515;43.52;21.74;47.392185;8.532198;429.20;8593400.00000;3.38;3.58;3.58;3.58
520;43.79;21.73;47.392189;8.532213;430.10;8593900.00000;3.65;3.86;3.86;3.86
525;44.08;21.15;47.392178;8.532199;432.90;8594400.00000;4.00;4.23;4.23;4.23
530;44.36;21.23;47.392174;8.532201;435.40;8594900.00000;4.20;4.44;4.44;4.44
535;44.58;20.84;47.392155;8.532201;435.90;8595400.00000;4.39;4.64;4.64;4.64
540;44.51;20.66;47.392139;8.532187;434.00;8595900.00000;4.21;4.45;4.45;4.45
545;43.94;20.68;47.392124;8.532203;433.20;9000400.00000;3.99;4.22;4.22;4.22
550;43.32;20.32;47.392155;8.532192;431.80;9000900.00000;4.09;4.32;4.32;4.32
555;42.87;20.91;47.392151;8.532173;431.00;9001400.00000;4.80;5.07;5.07;5.07
560;42.28;21.99;47.392174;8.532134;424.60;9001900.00000;5.15;5.44;5.44;5.44
565;41.74;22.49;47.392193;8.532151;418.30;9002400.00000;4.90;5.18;5.18;5.18
570;41.58;23.18;47.392200;8.532133;416.00;9002900.00000;4.62;4.89;4.89;4.89
575;41.62;23.46;47.392216;8.532125;416.50;9003400.00000;4.39;4.65;4.65;4.65
580;41.59;23.94;47.392239;8.532084;418.40;9003900.00000;4.27;4.52;4.52;4.52
585;41.28;27.33;47.392235;8.532060;418.10;9004400.00000;3.97;4.19;4.19;4.19
590;40.89;27.72;47.392220;8.532047;415.50;9004900.00000;3.76;3.98;3.98;3.98
595;40.56;28.62;47.392262;8.532037;415.30;9005400.00000;3.58;3.79;3.79;3.79
600;40.28;27.28;47.392242;8.532052;422.80;9005900.00000;3.61;3.81;3.81;3.81
605;40.03;24.88;47.392239;8.532054;422.70;9010400.00000;3.61;3.82;3.82;3.82
610;39.77;23.55;47.392250;8.532043;428.30;9010900.00000;3.69;3.91;3.91;3.91
615;39.36;23.46;47.392147;8.532001;431.50;9011400.00000;3.66;3.87;3.87;3.87
620;38.69;23.59;47.392139;8.532014;434.80;9011900.00000;3.59;3.80;3.80;3.80
625;38.11;24.01;47.392147;8.532010;441.40;9012400.00000;3.52;3.72;3.72;3.72
630;37.45;24.43;47.392124;8.532043;444.50;9012900.00000;3.46;3.66;3.66;3.66
635;36.85;24.74;47.392124;8.532073;447.00;9013400.00000;3.45;3.65;3.65;3.65
640;36.29;25.74;47.392113;8.532095;450.00;9013900.00000;3.52;3.72;3.72;3.72
645;35.73;26.17;47.392117;8.532101;446.60;9014400.00000;3.55;3.75;3.75;3.75
650;35.29;26.28;47.392109;8.532111;443.50;9014900.00000;3.78;4.00;4.00;4.00
655;34.82;26.98;47.392086;8.532121;442.40;9015400.00000;3.95;4.18;4.18;4.18
660;34.70;28.07;47.392036;8.532091;440.30;9015900.00000;4.16;4.40;4.40;4.40
665;34.50;28.18;47.391998;8.532059;443.20;9020400.00000;4.07;4.31;4.31;4.31
670;34.11;28.09;47.391975;8.532164;443.40;9020900.00000;4.11;4.35;4.35;4.35
675;33.89;29.18;47.391953;8.532191;445.10;9021400.00000;4.21;4.45;4.45;4.45
680;33.41;29.99;47.391830;8.532239;447.00;9021900.00000;4.24;4.49;4.49;4.49
685;32.57;30.04;47.391800;8.531993;446.10;9022400.00000;4.24;4.49;4.49;4.49
690;32.20;30.55;47.391918;8.531808;445.40;9022800.00000;4.54;4.80;4.80;4.80
695;31.90;31.06;47.392117;8.531574;441.60;9023300.00000;4.38;4.63;4.63;4.63
700;31.74;31.17;47.392315;8.531318;441.40;9023800.00000;4.17;4.41;4.41;4.41
705;31.56;31.37;47.392509;8.531055;441.60;9024300.00000;3.98;4.21;4.21;4.21
710;31.39;31.48;47.392727;8.530819;440.50;9024800.00000;3.87;4.10;4.10;4.10
715;31.22;31.79;47.392925;8.530569;438.80;9025300.00000;3.78;3.99;3.99;3.99
720;31.10;31.89;47.392941;8.530308;441.50;9025800.00000;3.84;4.06;4.06;4.06
725;30.59;32.12;47.392776;8.530083;442.90;9030300.00000;3.81;4.03;4.03;4.03
730;30.03;32.95;47.392502;8.530022;442.80;9030800.00000;3.99;4.22;4.22;4.22
735;29.31;34.06;47.392223;8.530187;443.00;9031300.00000;3.88;4.10;4.10;4.10
740;28.66;34.31;47.391987;8.530438;443.80;9031800.00000;3.72;3.94;3.94;3.94
745;28.06;35.15;47.391754;8.530706;445.30;9032300.00000;3.82;4.04;4.04;4.04
750;27.44;36.18;47.391514;8.530997;446.90;9032800.00000;4.04;4.27;4.27;4.27
755;27.08;37.30;47.391254;8.531279;450.00;9033300.00000;4.05;4.28;4.28;4.28
760;26.61;37.73;47.390995;8.531562;450.70;9033800.00000;3.93;4.15;4.15;4.15
765;26.38;38.82;47.390743;8.531862;452.00;9034300.00000;3.85;4.07;4.07;4.07
770;26.11;39.55;47.390491;8.532163;452.90;9034800.00000;3.89;4.12;4.12;4.12
775;25.89;39.77;47.390251;8.532454;456.00;9035300.00000;3.95;4.18;4.18;4.18
780;25.85;40.26;47.390003;8.532769;457.80;9035800.00000;3.92;4.15;4.15;4.15
785;25.74;40.88;47.389744;8.533077;460.00;9040300.00000;3.69;3.90;3.90;3.90
790;25.59;40.98;47.389484;8.533405;461.90;9040800.00000;3.66;3.87;3.87;3.87
795;25.40;41.30;47.389236;8.533749;465.00;9041300.00000;3.90;4.13;4.13;4.13
800;25.31;41.20;47.388947;8.533997;467.20;9041800.00000;4.08;4.31;4.31;4.31
805;25.06;41.42;47.388626;8.534116;468.00;9042300.00000;4.17;4.41;4.41;4.41
810;24.91;41.63;47.388447;8.534176;465.50;9042800.00000;4.21;4.45;4.45;4.45
815;24.76;42.03;47.388126;8.534273;465.80;9043300.00000;4.16;4.40;4.40;4.40
820;24.59;42.35;47.387760;8.534406;463.30;9043800.00000;4.08;4.31;4.31;4.31
825;24.56;42.75;47.387398;8.534575;457.30;9044300.00000;4.27;4.52;4.52;4.52
830;24.45;42.75;47.387157;8.534739;446.00;9044800.00000;4.43;4.69;4.69;4.69
835;24.85;42.83;47.387085;8.534846;438.20;9045300.00000;4.54;4.80;4.80;4.80
840;25.33;42.49;47.387077;8.535003;434.50;9045800.00000;4.74;5.02;5.02;5.02
845;25.66;42.05;47.387047;8.535206;433.30;9050300.00000;4.92;5.21;5.21;5.21
850;25.81;41.66;47.387169;8.535360;434.30;9050800.00000;4.94;5.23;5.23;5.23
855;25.66;41.38;47.387310;8.535547;433.50;9051300.00000;4.83;5.11;5.11;5.11
860;25.41;41.20;47.387432;8.535745;432.80;9051800.00000;4.77;5.05;5.05;5.05
865;25.26;41.42;47.387554;8.535945;428.70;9052300.00000;4.68;4.95;4.95;4.95
870;25.00;41.82;47.387680;8.536121;425.80;9052800.00000;4.45;4.70;4.70;4.70
875;24.74;42.13;47.387810;8.536281;423.50;9053300.00000;4.19;4.44;4.44;4.44
880;24.84;42.53;47.387932;8.536373;424.40;9053800.00000;4.16;4.40;4.40;4.40
885;24.82;43.13;47.388103;8.536459;427.30;9054300.00000;4.08;4.31;4.31;4.31
890;24.90;43.13;47.388306;8.536515;425.20;9054800.00000;4.29;4.54;4.54;4.54
895;24.82;43.23;47.388458;8.536497;427.60;9055300.00000;4.68;4.94;4.94;4.94
900;24.84;43.32;47.388615;8.536447;429.90;9055800.00000;4.91;5.19;5.19;5.19
905;24.75;43.32;47.388733;8.536412;436.60;9060300.00000;5.00;5.29;5.29;5.29
910;24.65;43.74;47.388893;8.536376;439.20;9060800.00000;5.32;5.62;5.62;5.62
915;24.47;43.84;47.389042;8.536332;443.10;9061300.00000;5.58;5.90;5.90;5.90
920;24.40;43.96;47.389202;8.536306;447.60;9061800.00000;5.57;5.89;5.89;5.89
925;24.26;44.08;47.389366;8.536292;446.50;9062300.00000;5.45;5.76;5.76;5.76
930;24.15;44.38;47.389568;8.536333;444.40;9062800.00000;5.20;5.50;5.50;5.50
935;24.18;44.68;47.389744;8.536356;442.90;9063300.00000;4.85;5.13;5.13;5.13
940;24.28;44.56;47.389896;8.536358;442.20;9063800.00000;4.69;4.96;4.96;4.96
945;24.38;44.85;47.390018;8.536259;446.60;9064300.00000;4.63;4.89;4.89;4.89
950;24.25;44.76;47.390152;8.536288;450.10;9064800.00000;4.61;4.87;4.87;4.87
955;24.25;44.56;47.390347;8.536375;449.00;9065300.00000;4.47;4.72;4.72;4.72
960;24.58;44.74;47.390537;8.536392;447.20;9065800.00000;4.61;4.87;4.87;4.87
965;25.15;44.99;47.390709;8.536362;448.30;9070300.00000;4.68;4.95;4.95;4.95
970;25.67;44.75;47.390823;8.536338;451.80;9070800.00000;4.80;5.07;5.07;5.07
975;26.16;44.09;47.390957;8.536319;454.50;9071300.00000;4.82;5.10;5.10;5.10
980;26.63;42.38;47.391159;8.536266;454.90;9071800.00000;5.41;5.72;5.72;5.72
985;26.95;41.06;47.391384;8.536109;454.40;9072300.00000;5.57;5.89;5.89;5.89
990;27.10;39.87;47.391590;8.535873;452.80;9072800.00000;5.50;5.81;5.81;5.81
995;27.12;39.48;47.391808;8.535606;453.10;9073300.00000;5.41;5.72;5.72;5.72
1000;26.64;39.51;47.392048;8.535338;454.30;9073800.00000;5.52;5.84;5.84;5.84
1005;26.28;39.83;47.392281;8.535040;454.20;9074300.00000;5.37;5.68;5.68;5.68
1010;26.05;40.05;47.392525;8.534761;454.50;9074800.00000;5.22;5.52;5.52;5.52
1015;26.08;40.34;47.392784;8.534497;454.00;9075300.00000;5.20;5.50;5.50;5.50
1020;26.20;40.64;47.393044;8.534245;455.00;9075800.00000;4.94;5.22;5.22;5.22
1025;26.05;40.74;47.393299;8.533993;455.20;9080300.00000;4.67;4.94;4.94;4.94
1030;25.89;41.26;47.393570;8.533786;453.80;9080800.00000;4.66;4.93;4.93;4.93
1035;26.08;41.33;47.393841;8.533597;452.80;9081300.00000;4.54;4.81;4.81;4.81
1040;26.15;41.04;47.394104;8.533441;451.40;9081800.00000;4.74;5.02;5.02;5.02
1045;26.24;40.92;47.394356;8.533288;450.60;9082300.00000;4.90;5.18;5.18;5.18
1050;26.38;40.92;47.394588;8.533113;448.30;9082800.00000;4.86;5.14;5.14;5.14
1055;26.64;40.78;47.394802;8.532910;449.20;9083300.00000;4.90;5.18;5.18;5.18
1060;27.15;40.37;47.395004;8.532722;448.20;9083800.00000;5.04;5.33;5.33;5.33
1065;27.42;39.83;47.395164;8.532537;448.90;9084300.00000;4.96;5.25;5.25;5.25
1070;27.90;38.90;47.395317;8.532373;450.80;9084800.00000;4.75;5.03;5.03;5.03
1075;28.28;38.37;47.395462;8.532260;451.00;9085300.00000;4.68;4.95;4.95;4.95
1080;28.64;37.96;47.395599;8.532153;453.60;9085800.00000;4.90;5.18;5.18;5.18
1085;29.06;37.43;47.395645;8.531958;453.60;9090300.00000;5.20;5.50;5.50;5.50
1090;29.41;36.63;47.395664;8.531640;449.70;9090800.00000;5.28;5.59;5.59;5.59
1095;29.52;35.84;47.395756;8.531223;447.00;9091300.00000;5.45;5.77;5.77;5.77
1100;29.40;35.44;47.395828;8.530705;445.80;9091800.00000;5.41;5.72;5.72;5.72
1105;29.13;35.36;47.395859;8.530227;446.70;9092300.00000;5.35;5.66;5.66;5.66
1110;28.96;36.07;47.395855;8.529833;446.20;9092800.00000;5.22;5.52;5.52;5.52
1115;29.03;36.27;47.395836;8.529357;448.20;9093300.00000;5.01;5.30;5.30;5.30
1120;28.98;36.36;47.395882;8.528843;451.30;9093800.00000;4.94;5.23;5.23;5.23
1125;28.96;36.27;47.395943;8.528353;451.20;9094300.00000;4.79;5.06;5.06;5.06
1130;28.94;36.17;47.395988;8.527919;447.90;9094800.00000;4.72;4.99;4.99;4.99
1135;29.12;36.05;47.396030;8.527647;445.50;9095300.00000;4.89;5.17;5.17;5.17
1140;29.44;36.23;47.395992;8.527807;444.80;9095800.00000;4.77;5.05;5.05;5.05
1145;29.44;35.84;47.395947;8.528114;445.90;9100300.00000;4.75;5.02;5.02;5.02
1150;29.13;35.56;47.395878;8.528487;447.90;9100800.00000;5.12;5.41;5.41;5.41
1155;28.94;35.77;47.395832;8.528776;446.70;9101200.00000;5.15;5.44;5.44;5.44
1160;28.75;36.66;47.395775;8.529132;449.00;9101700.00000;4.98;5.27;5.27;5.27
1165;28.57;37.07;47.395756;8.529484;449.70;9102200.00000;5.29;5.59;5.59;5.59
1170;28.54;37.19;47.395763;8.529773;448.70;9102700.00000;5.27;5.57;5.57;5.57
1175;28.31;37.41;47.395748;8.530010;449.70;9103200.00000;4.93;5.22;5.22;5.22
1180;27.85;37.64;47.395557;8.529997;443.90;9103700.00000;4.56;4.82;4.82;4.82
1185;27.13;38.09;47.395252;8.529899;434.80;9104200.00000;4.38;4.64;4.64;4.64
1190;26.65;38.72;47.394951;8.529832;427.90;9104700.00000;4.53;4.79;4.79;4.79
1195;26.56;39.71;47.394882;8.529623;426.40;9105200.00000;4.50;4.76;4.76;4.76
1200;26.70;40.68;47.394974;8.529259;427.50;9105700.00000;4.42;4.68;4.68;4.68
1205;26.95;40.47;47.395084;8.528877;428.60;9110200.00000;4.46;4.72;4.72;4.72
1210;27.27;40.15;47.395184;8.528549;429.50;9110700.00000;4.49;4.75;4.75;4.75
1215;27.45;39.43;47.395283;8.528245;430.20;9111200.00000;4.70;4.97;4.97;4.97
1220;27.69;38.73;47.395405;8.527928;432.10;9111700.00000;4.80;5.08;5.08;5.08
1225;27.97;38.21;47.395523;8.527584;428.00;9112200.00000;4.85;5.13;5.13;5.13
1230;28.15;37.80;47.395618;8.527237;435.00;9112700.00000;4.79;5.06;5.06;5.06
1235;28.53;37.78;47.395687;8.526974;436.70;9113200.00000;4.73;5.00;5.00;5.00
1240;29.07;37.34;47.395630;8.527099;437.90;9113700.00000;4.84;5.12;5.12;5.12
1245;29.13;36.36;47.395535;8.527360;440.00;9114200.00000;4.79;5.06;5.06;5.06
1250;29.00;35.88;47.395412;8.527702;442.30;9114700.00000;4.91;5.20;5.20;5.20
1255;28.81;35.89;47.395271;8.528078;441.30;9115200.00000;5.06;5.35;5.35;5.35
1260;28.22;36.22;47.395088;8.528231;435.40;9115700.00000;5.24;5.54;5.54;5.54
1265;27.82;37.05;47.394833;8.528060;431.80;9120200.00000;5.20;5.50;5.50;5.50
1270;27.76;37.24;47.394623;8.528024;428.70;9120700.00000;5.14;5.43;5.43;5.43
1275;27.78;37.34;47.394501;8.528345;431.50;9121200.00000;5.10;5.39;5.39;5.39
1280;27.69;37.96;47.394360;8.528708;430.70;9121700.00000;4.81;5.09;5.09;5.09
1285;27.37;37.96;47.394226;8.529067;432.50;9122200.00000;4.71;4.98;4.98;4.98
1290;27.30;37.98;47.394081;8.529403;433.30;9122700.00000;4.74;5.01;5.01;5.01
1295;26.85;38.40;47.393883;8.529482;434.30;9123200.00000;4.70;4.97;4.97;4.97
1300;26.30;38.94;47.393669;8.529416;442.00;9123700.00000;5.10;5.39;5.39;5.39
1305;26.38;39.81;47.393616;8.529304;447.80;9124200.00000;5.37;5.68;5.68;5.68
1310;26.85;40.29;47.393715;8.529028;449.20;9124700.00000;5.41;5.73;5.73;5.73
1315;27.26;40.05;47.393822;8.528754;449.50;9125200.00000;5.41;5.72;5.72;5.72
1320;27.66;39.22;47.393951;8.528405;446.20;9125700.00000;5.36;5.67;5.67;5.67
1325;27.87;38.53;47.394077;8.528037;443.10;9130200.00000;5.43;5.74;5.74;5.74
1330;28.09;38.12;47.394207;8.527622;441.50;9130700.00000;5.45;5.76;5.76;5.76
1335;28.37;38.00;47.394356;8.527191;441.40;9131200.00000;5.65;5.97;5.97;5.97
1340;28.52;37.59;47.394386;8.526714;438.70;9131700.00000;5.86;6.19;6.19;6.19
1345;28.42;36.99;47.394207;8.526340;440.60;9132200.00000;5.53;5.85;5.85;5.85
1350;28.68;36.90;47.394184;8.525959;440.50;9132700.00000;5.32;5.62;5.62;5.62
1355;28.77;36.58;47.394264;8.525568;442.10;9133200.00000;5.12;5.42;5.42;5.42
1360;28.96;36.25;47.394390;8.525219;441.30;9133700.00000;4.92;5.20;5.20;5.20
1365;29.24;36.15;47.394588;8.524940;440.60;9134200.00000;4.83;5.11;5.11;5.11
1370;29.31;36.05;47.394859;8.524768;439.90;9134700.00000;4.58;4.84;4.84;4.84
1375;29.29;35.74;47.395111;8.524596;439.60;9135200.00000;4.45;4.71;4.71;4.71
1380;29.52;35.82;47.395260;8.524220;438.00;9135700.00000;4.63;4.90;4.90;4.90
1385;29.80;35.92;47.395367;8.523851;436.20;9140200.00000;4.76;5.03;5.03;5.03
1390;30.11;35.59;47.395466;8.523492;433.60;9140700.00000;4.97;5.25;5.25;5.25
1395;30.28;35.00;47.395557;8.523143;432.70;9141200.00000;5.01;5.30;5.30;5.30
1400;30.40;34.59;47.395634;8.522809;432.80;9141700.00000;4.64;4.91;4.91;4.91
1405;30.48;34.30;47.395676;8.522518;432.00;9142200.00000;4.49;4.75;4.75;4.75
1410;30.46;34.10;47.395542;8.522418;430.70;9142700.00000;4.37;4.62;4.62;4.62
1415;30.10;33.94;47.395283;8.522260;428.30;9143200.00000;4.16;4.40;4.40;4.40
1420;29.80;34.15;47.395237;8.521984;431.90;9143700.00000;4.09;4.33;4.33;4.33
1425;29.77;34.54;47.395340;8.521657;436.70;9144200.00000;4.07;4.30;4.30;4.30
1430;29.59;34.54;47.395405;8.521341;437.50;9144700.00000;4.43;4.69;4.69;4.69
1435;29.61;34.66;47.395489;8.521009;438.60;9145200.00000;4.61;4.87;4.87;4.87
1440;29.65;34.84;47.395576;8.520654;439.60;9145700.00000;4.73;5.01;5.01;5.01
1445;29.71;34.94;47.395668;8.520324;440.20;9150200.00000;4.64;4.91;4.91;4.91
1450;29.83;35.21;47.395756;8.519995;439.60;9150700.00000;4.52;4.78;4.78;4.78
1455;30.00;35.11;47.395836;8.519651;441.80;9151200.00000;4.49;4.75;4.75;4.75
1460;29.96;34.53;47.395931;8.519291;441.80;9151700.00000;4.60;4.86;4.86;4.86
1465;29.86;34.13;47.396023;8.518954;437.70;9152200.00000;4.38;4.63;4.63;4.63
1470;29.93;34.43;47.396118;8.518620;443.00;9152700.00000;4.25;4.49;4.49;4.49
1475;29.99;34.63;47.396191;8.518300;449.60;9153200.00000;4.14;4.38;4.38;4.38
1480;30.15;34.90;47.396248;8.517988;449.30;9153700.00000;4.14;4.38;4.38;4.38
1485;30.05;34.72;47.396282;8.517672;453.20;9154200.00000;4.50;4.76;4.76;4.76
1490;29.96;34.53;47.396271;8.517363;457.60;9154700.00000;4.56;4.83;4.83;4.83
1495;29.81;34.33;47.396271;8.517069;462.80;9155200.00000;4.53;4.79;4.79;4.79
1500;29.70;34.25;47.396290;8.516771;464.00;9155700.00000;4.28;4.52;4.52;4.52
1505;29.77;34.34;47.396282;8.516441;463.40;9160200.00000;4.18;4.42;4.42;4.42
1510;29.93;34.23;47.396252;8.516181;465.40;9160700.00000;3.90;4.12;4.12;4.12
1515;29.81;34.63;47.396217;8.516002;465.10;9161200.00000;3.89;4.12;4.12;4.12
1520;29.49;34.86;47.396130;8.515899;461.20;9161700.00000;4.01;4.24;4.24;4.24
1525;29.44;35.35;47.396122;8.515725;462.30;9162200.00000;4.00;4.23;4.23;4.23
1530;29.62;35.43;47.396179;8.515441;457.30;9162700.00000;4.13;4.36;4.36;4.36
1535;29.99;35.31;47.396252;8.515179;455.70;9163200.00000;4.17;4.41;4.41;4.41
1540;30.48;34.99;47.396294;8.514979;455.20;9163700.00000;4.23;4.48;4.48;4.48
1545;30.67;33.69;47.396294;8.514947;454.40;9164200.00000;4.13;4.37;4.37;4.37
1550;30.62;33.29;47.396286;8.514892;452.80;9164700.00000;4.03;4.26;4.26;4.26
1555;30.53;33.22;47.396275;8.514875;453.60;9165200.00000;3.98;4.21;4.21;4.21
